Method       t0       tn       N         h  beta      Time used [s]
Verlet        0  1.0e+01  100000 1.000e-04  2.000000       0.028893

x  -  y  -  z  .........
  -2.883410e-06  -8.199914e-07   4.847779e-11   9.607842e-01   2.732302e-01  -1.615334e-05
  -2.819972e-06  -9.980097e-07   6.314716e-11   9.396461e-01   3.325479e-01  -2.104134e-05
  -2.745297e-06  -1.172050e-06   7.756482e-11   9.147635e-01   3.905401e-01  -2.584546e-05
  -2.659611e-06  -1.341389e-06   9.167132e-11   8.862121e-01   4.469657e-01  -3.054590e-05
  -2.563192e-06  -1.505313e-06   1.054078e-10   8.540839e-01   5.015870e-01  -3.512304e-05
  -2.456362e-06  -1.663123e-06   1.187160e-10   8.184871e-01   5.541709e-01  -3.955750e-05
  -2.339495e-06  -1.814135e-06   1.315391e-10   7.795457e-01   6.044900e-01  -4.383030e-05
  -2.213010e-06  -1.957689e-06   1.438214e-10   7.373995e-01   6.523237e-01  -4.792288e-05
  -2.077374e-06  -2.093146e-06   1.555088e-10   6.922039e-01   6.974594e-01  -5.181726e-05
  -1.933097e-06  -2.219896e-06   1.665494e-10   6.441295e-01   7.396941e-01  -5.549610e-05
  -1.780737e-06  -2.337362e-06   1.768933e-10   5.933613e-01   7.788350e-01  -5.894282e-05
  -1.620890e-06  -2.445000e-06   1.864935e-10   5.400986e-01   8.147012e-01  -6.214172e-05
  -1.454195e-06  -2.542306e-06   1.953057e-10   4.845538e-01   8.471247e-01  -6.507801e-05
  -1.281325e-06  -2.628818e-06   2.032885e-10   4.269518e-01   8.759513e-01  -6.773798e-05
  -1.102992e-06  -2.704118e-06   2.104043e-10   3.675291e-01   9.010420e-01  -7.010906e-05
  -9.199351e-07  -2.767836e-06   2.166191e-10   3.065326e-01   9.222738e-01  -7.217987e-05
  -7.329243e-07  -2.819657e-06   2.219025e-10   2.442185e-01   9.395408e-01  -7.394039e-05
  -5.427522e-07  -2.859313e-06   2.262288e-10   1.808511e-01   9.527549e-01  -7.538194e-05
  -3.502320e-07  -2.886597e-06   2.295761e-10   1.167012e-01   9.618462e-01  -7.649731e-05
  -1.561926e-07  -2.901357e-06   2.319274e-10   5.204510e-02   9.667644e-01  -7.728078e-05
   3.852573e-08  -2.903501e-06   2.332701e-10  -1.283720e-02   9.674786e-01  -7.772819e-05
   2.330760e-07  -2.892994e-06   2.335965e-10  -7.766350e-02   9.639778e-01  -7.783696e-05
   4.266091e-07  -2.869866e-06   2.329038e-10  -1.421509e-01   9.562712e-01  -7.760613e-05
   6.182791e-07  -2.834204e-06   2.311939e-10  -2.060175e-01   9.443884e-01  -7.703638e-05
   8.072473e-07  -2.786158e-06   2.284738e-10  -2.689838e-01   9.283788e-01  -7.613000e-05
   9.926877e-07  -2.725936e-06   2.247552e-10  -3.307745e-01   9.083121e-01  -7.489092e-05
   1.173791e-06  -2.653804e-06   2.200547e-10  -3.911203e-01   8.842770e-01  -7.332465e-05
   1.349771e-06  -2.570088e-06   2.143935e-10  -4.497586e-01   8.563817e-01  -7.143829e-05
   1.519865e-06  -2.475165e-06   2.077975e-10  -5.064360e-01   8.247524e-01  -6.924043e-05
   1.683344e-06  -2.369467e-06   2.002970e-10  -5.609089e-01   7.895328e-01  -6.674117e-05
   1.839510e-06  -2.253476e-06   1.919263e-10  -6.129452e-01   7.508833e-01  -6.395197e-05
   1.987705e-06  -2.127720e-06   1.827239e-10  -6.623254e-01   7.089798e-01  -6.088563e-05
   2.127312e-06  -1.992769e-06   1.727319e-10  -7.088439e-01   6.640127e-01  -5.755620e-05
   2.257756e-06  -1.849235e-06   1.619960e-10  -7.523095e-01   6.161857e-01  -5.397886e-05
   2.378512e-06  -1.697765e-06   1.505648e-10  -7.925467e-01   5.657142e-01  -5.016987e-05
   2.489102e-06  -1.539038e-06   1.384901e-10  -8.293964e-01   5.128244e-01  -4.614643e-05
   2.589098e-06  -1.373759e-06   1.258258e-10  -8.627163e-01   4.577519e-01  -4.192657e-05
   2.678126e-06  -1.202661e-06   1.126285e-10  -8.923813e-01   4.007399e-01  -3.752907e-05
   2.755864e-06  -1.026491e-06   9.895631e-11  -9.182844e-01   3.420383e-01  -3.297334e-05
   2.822043e-06  -8.460159e-07   8.486903e-11  -9.403362e-01   2.819019e-01  -2.827930e-05
   2.876451e-06  -6.620107e-07   7.042766e-11  -9.584654e-01   2.205893e-01  -2.346728e-05
   2.918927e-06  -4.752586e-07   5.569408e-11  -9.726188e-01   1.583615e-01  -1.855789e-05
   2.949364e-06  -2.865457e-07   4.073075e-11  -9.827609e-01   9.548022e-02  -1.357194e-05
   2.967711e-06  -9.665731e-08   2.560038e-11  -9.888741e-01   3.220729e-02  -8.530330e-06
   2.973964e-06   9.362576e-08   1.036563e-11  -9.909579e-01  -3.119714e-02  -3.453942e-06
   2.968175e-06   2.835305e-07  -4.911167e-12  -9.890288e-01  -9.447551e-02   1.636455e-06
   2.950441e-06   4.722951e-07  -2.016826e-11  -9.831196e-01  -1.573740e-01   6.720289e-06
   2.920909e-06   6.591719e-07  -3.534477e-11  -9.732792e-01  -2.196434e-01   1.177727e-05
   2.879771e-06   8.434304e-07  -5.038091e-11  -9.595716e-01  -2.810404e-01   1.678748e-05
   2.827263e-06   1.024360e-06  -6.521821e-11  -9.420755e-01  -3.413280e-01   2.173143e-05
   2.763664e-06   1.201271e-06  -7.979972e-11  -9.208836e-01  -4.002769e-01   2.659015e-05
   2.689291e-06   1.373501e-06  -9.407020e-11  -8.961017e-01  -4.576656e-01   3.134524e-05
   2.604499e-06   1.540410e-06  -1.079763e-10  -8.678481e-01  -5.132816e-01   3.597890e-05
   2.509679e-06   1.701388e-06  -1.214667e-10  -8.362529e-01  -5.669214e-01   4.047406e-05
   2.405254e-06   1.855856e-06  -1.344923e-10  -8.014572e-01  -6.183918e-01   4.481433e-05
   2.291676e-06   2.003263e-06  -1.470063e-10  -7.636120e-01  -6.675096e-01   4.898412e-05
   2.169430e-06   2.143093e-06  -1.589642e-10  -7.228781e-01  -7.141024e-01   5.296862e-05
   2.039022e-06   2.274861e-06  -1.703241e-10  -6.794247e-01  -7.580091e-01   5.675387e-05
   1.900984e-06   2.398118e-06  -1.810467e-10  -6.334288e-01  -7.990796e-01   6.032678e-05
   1.755868e-06   2.512448e-06  -1.910954e-10  -5.850748e-01  -8.371756e-01   6.367512e-05
   1.604249e-06   2.617471e-06  -2.004363e-10  -5.345534e-01  -8.721705e-01   6.678761e-05
   1.446713e-06   2.712844e-06  -2.090382e-10  -4.820610e-01  -9.039498e-01   6.965385e-05
   1.283867e-06   2.798259e-06  -2.168728e-10  -4.277988e-01  -9.324110e-01   7.226442e-05
   1.116327e-06   2.873444e-06  -2.239145e-10  -3.719726e-01  -9.574636e-01   7.461081e-05
   9.447213e-07   2.938166e-06  -2.301409e-10  -3.147916e-01  -9.790294e-01   7.668549e-05
   7.696869e-07   2.992225e-06  -2.355321e-10  -2.564682e-01  -9.970426e-01   7.848190e-05
   5.918680e-07   3.035461e-06  -2.400713e-10  -1.972170e-01  -1.011449e+00   7.999443e-05
   4.119143e-07   3.067749e-06  -2.437447e-10  -1.372544e-01  -1.022208e+00   8.121845e-05
   2.304784e-07   3.089001e-06  -2.465413e-10  -7.679795e-02  -1.029289e+00   8.215030e-05
   4.821500e-08   3.099166e-06  -2.484529e-10  -1.606577e-02  -1.032676e+00   8.278728e-05
  -1.342213e-07   3.098227e-06  -2.494745e-10   4.472403e-02  -1.032364e+00   8.312766e-05
  -3.161776e-07   3.086206e-06  -2.496036e-10   1.053539e-01  -1.028358e+00   8.317069e-05
  -4.970044e-07   3.063159e-06  -2.488409e-10   1.656074e-01  -1.020678e+00   8.291656e-05
  -6.760570e-07   3.029176e-06  -2.471899e-10   2.252697e-01  -1.009355e+00   8.236643e-05
  -8.526973e-07   2.984384e-06  -2.446569e-10   2.841282e-01  -9.944300e-01   8.152240e-05
  -1.026295e-06   2.928945e-06  -2.412510e-10   3.419730e-01  -9.759569e-01   8.038751e-05
  -1.196231e-06   2.863053e-06  -2.369841e-10   3.985973e-01  -9.540010e-01   7.896573e-05
  -1.361894e-06   2.786937e-06  -2.318710e-10   4.537983e-01  -9.286383e-01   7.726198e-05
  -1.522690e-06   2.700859e-06  -2.259290e-10   5.073771e-01  -8.999563e-01   7.528205e-05
  -1.678035e-06   2.605115e-06  -2.191784e-10   5.591399e-01  -8.680532e-01   7.303268e-05
  -1.827364e-06   2.500031e-06  -2.116420e-10   6.088980e-01  -8.330380e-01   7.052147e-05
  -1.970128e-06   2.385965e-06  -2.033453e-10   6.564685e-01  -7.950301e-01   6.775691e-05
  -2.105797e-06   2.263308e-06  -1.943163e-10   7.016749e-01  -7.541592e-01   6.474836e-05
  -2.233862e-06   2.132478e-06  -1.845857e-10   7.443477e-01  -7.105653e-01   6.150602e-05
  -2.353836e-06   1.993925e-06  -1.741866e-10   7.843244e-01  -6.643979e-01   5.804092e-05
  -2.465256e-06   1.848126e-06  -1.631545e-10   8.214508e-01  -6.158162e-01   5.436490e-05
  -2.567685e-06   1.695587e-06  -1.515274e-10   8.555810e-01  -5.649885e-01   5.049061e-05
  -2.660710e-06   1.536840e-06  -1.393454e-10   8.865781e-01  -5.120920e-01   4.643144e-05
  -2.743951e-06   1.372441e-06  -1.266510e-10   9.143149e-01  -4.573126e-01   4.220153e-05
  -2.817055e-06   1.202973e-06  -1.134888e-10   9.386741e-01  -4.008439e-01   3.781574e-05
  -2.879703e-06   1.029040e-06  -9.990544e-11   9.595491e-01  -3.428876e-01   3.328960e-05
  -2.931609e-06   8.512694e-07  -8.594941e-11   9.768446e-01  -2.836524e-01   2.863930e-05
  -2.972521e-06   6.703070e-07  -7.167112e-11   9.904769e-01  -2.233537e-01   2.388161e-05
  -3.002225e-06   4.868179e-07  -5.712264e-11   1.000375e+00  -1.622131e-01   1.903390e-05
  -3.020545e-06   3.014835e-07  -4.235763e-11   1.006479e+00  -1.004576e-01   1.411403e-05
  -3.027345e-06   1.150000e-07  -2.743112e-11   1.008745e+00  -3.831928e-02   9.140354e-06
  -3.022531e-06  -7.192397e-08  -1.239943e-11   1.007141e+00   2.396587e-02   4.131628e-06
  -3.006049e-06  -2.585696e-07   2.680062e-12   1.001649e+00   8.615825e-02  -8.930265e-07
  -2.977892e-06  -4.442101e-07   1.774909e-11   9.922668e-01   1.480158e-01  -5.914192e-06
  -2.938097e-06  -6.281138e-07   3.274867e-11   9.790064e-01   2.092945e-01  -1.091222e-05
  -2.886745e-06  -8.095461e-07   4.761939e-11   9.618954e-01   2.697497e-01  -1.586731e-05
  -2.823966e-06  -9.877731e-07   6.230155e-11   9.409768e-01   3.291370e-01  -2.075957e-05
  -2.749937e-06  -1.162064e-06   7.673545e-11   9.163097e-01   3.872127e-01  -2.556910e-05
  -2.664884e-06  -1.331696e-06   9.086164e-11   8.879690e-01   4.437358e-01  -3.027611e-05
  -2.569079e-06  -1.495954e-06   1.046212e-10   8.560458e-01   4.984684e-01  -3.486094e-05
  -2.462845e-06  -1.654137e-06   1.179559e-10   8.206471e-01   5.511769e-01  -3.930421e-05
  -2.346549e-06  -1.805563e-06   1.308087e-10   7.818963e-01   6.016336e-01  -4.358691e-05
  -2.220611e-06  -1.949567e-06   1.431238e-10   7.399321e-01   6.496175e-01  -4.769045e-05
  -2.085492e-06  -2.085512e-06   1.548472e-10   6.949091e-01   6.949156e-01  -5.159682e-05
  -1.941703e-06  -2.212784e-06   1.659268e-10   6.469969e-01   7.373241e-01  -5.528864e-05
  -1.789796e-06  -2.330804e-06   1.763125e-10   5.963799e-01   7.766498e-01  -5.874929e-05
  -1.630367e-06  -2.439027e-06   1.859571e-10   5.432563e-01   8.127109e-01  -6.196299e-05
  -1.464051e-06  -2.536946e-06   1.948162e-10   4.878380e-01   8.453387e-01  -6.491492e-05
  -1.291521e-06  -2.624097e-06   2.028483e-10   4.303491e-01   8.743781e-01  -6.759129e-05
  -1.113485e-06  -2.700058e-06   2.100154e-10   3.710255e-01   8.996893e-01  -6.997946e-05
  -9.306817e-07  -2.764459e-06   2.162833e-10   3.101135e-01   9.211483e-01  -7.206801e-05
  -7.438790e-07  -2.816977e-06   2.216217e-10   2.478688e-01   9.386482e-01  -7.384680e-05
  -5.538685e-07  -2.857347e-06   2.260041e-10   1.845551e-01   9.520996e-01  -7.530709e-05
  -3.614621e-07  -2.885354e-06   2.294088e-10   1.204432e-01   9.614320e-01  -7.644157e-05
  -1.674880e-07  -2.900844e-06   2.318183e-10   5.580887e-02   9.665936e-01  -7.724444e-05
   2.721398e-08  -2.903722e-06   2.332199e-10  -9.067999e-03   9.675524e-01  -7.771145e-05
   2.217972e-07  -2.893950e-06   2.336054e-10  -7.390529e-02   9.642963e-01  -7.783993e-05
   4.154126e-07  -2.871553e-06   2.329719e-10  -1.384201e-01   9.568334e-01  -7.762882e-05
   6.072138e-07  -2.836616e-06   2.313209e-10  -2.023304e-01   9.451919e-01  -7.707871e-05
   7.963617e-07  -2.789284e-06   2.286592e-10  -2.653565e-01   9.294203e-01  -7.619179e-05
   9.820292e-07  -2.729762e-06   2.249982e-10  -3.272230e-01   9.095869e-01  -7.497189e-05
   1.163406e-06  -2.658314e-06   2.203541e-10  -3.876599e-01   8.857796e-01  -7.342444e-05
   1.339705e-06  -2.575260e-06   2.147481e-10  -4.464045e-01   8.581052e-01  -7.155645e-05
   1.510161e-06  -2.480976e-06   2.082056e-10  -5.032025e-01   8.266889e-01  -6.937642e-05
   1.674043e-06  -2.375892e-06   2.007567e-10  -5.578098e-01   7.916736e-01  -6.689436e-05
   1.830653e-06  -2.260485e-06   1.924355e-10  -6.099938e-01   7.532186e-01  -6.412166e-05
   1.979328e-06  -2.135280e-06   1.832803e-10  -6.595341e-01   7.114990e-01  -6.107104e-05
   2.119449e-06  -2.000847e-06   1.733330e-10  -7.062241e-01   6.667044e-01  -5.775649e-05
   2.250441e-06  -1.857794e-06   1.626390e-10  -7.498719e-01   6.190377e-01  -5.419311e-05
   2.371773e-06  -1.706767e-06   1.512468e-10  -7.903012e-01   5.687136e-01  -5.039712e-05
   2.482965e-06  -1.548442e-06   1.392080e-10  -8.273517e-01   5.159580e-01  -4.638564e-05
   2.583588e-06  -1.383524e-06   1.265764e-10  -8.608801e-01   4.610056e-01  -4.217668e-05
   2.673262e-06  -1.212743e-06   1.134085e-10  -8.907605e-01   4.040995e-01  -3.778897e-05
   2.751663e-06  -1.036847e-06   9.976226e-11  -9.168847e-01   3.454891e-01  -3.324189e-05
   2.818520e-06  -8.566011e-07   8.569742e-11  -9.391622e-01   2.854290e-01  -2.855533e-05
   2.873616e-06  -6.727795e-07   7.127493e-11  -9.575209e-01   2.241776e-01  -2.374960e-05
   2.916788e-06  -4.861655e-07   5.655662e-11  -9.719063e-01   1.619957e-01  -1.884529e-05
   2.947927e-06  -2.975449e-07   4.160492e-11  -9.822821e-01   9.914527e-02  -1.386322e-05
   2.966976e-06  -1.077034e-07   2.648253e-11  -9.886294e-01   3.588796e-02  -8.824274e-06
   2.973931e-06   8.257803e-08   1.125213e-11  -9.909469e-01  -2.751592e-02  -3.749335e-06
   2.968839e-06   2.725257e-07  -4.023915e-12  -9.892501e-01  -9.080859e-02   1.340813e-06
   2.951795e-06   4.613771e-07  -1.928383e-11  -9.835709e-01  -1.537360e-01   6.425585e-06
   2.922943e-06   6.483837e-07  -3.446667e-11  -9.739572e-01  -2.160486e-01   1.148468e-05
   2.882473e-06   8.328138e-07  -4.951257e-11  -9.604721e-01  -2.775028e-01   1.649814e-05
   2.830619e-06   1.013956e-06  -6.436299e-11  -9.431937e-01  -3.378613e-01   2.144646e-05
   2.767656e-06   1.191119e-06  -7.896088e-11  -9.222136e-01  -3.968940e-01   2.631064e-05
   2.693899e-06   1.363638e-06  -9.325090e-11  -8.976371e-01  -4.543793e-01   3.107224e-05
   2.609702e-06   1.530873e-06  -1.071796e-10  -8.695817e-01  -5.101038e-01   3.571343e-05
   2.515453e-06   1.692212e-06  -1.206955e-10  -8.381768e-01  -5.638638e-01   4.021709e-05
   2.411573e-06   1.847073e-06  -1.337494e-10  -8.035629e-01  -6.154653e-01   4.456679e-05
   2.298514e-06   1.994905e-06  -1.462943e-10  -7.658905e-01  -6.647245e-01   4.874689e-05
   2.176758e-06   2.135188e-06  -1.582857e-10  -7.253198e-01  -7.114685e-01   5.274254e-05
   2.046809e-06   2.267438e-06  -1.696814e-10  -6.820195e-01  -7.555354e-01   5.653973e-05
   1.909199e-06   2.391200e-06  -1.804421e-10  -6.361664e-01  -7.967745e-01   6.012531e-05
   1.764480e-06   2.506059e-06  -1.905309e-10  -5.879442e-01  -8.350468e-01   6.348702e-05
   1.613222e-06   2.611633e-06  -1.999138e-10  -5.375433e-01  -8.702251e-01   6.661349e-05
   1.456014e-06   2.707575e-06  -2.085594e-10  -4.851599e-01  -9.021941e-01   6.949430e-05
   1.293459e-06   2.793576e-06  -2.164392e-10  -4.309949e-01  -9.308505e-01   7.211996e-05
   1.126174e-06   2.869362e-06  -2.235277e-10  -3.752538e-01  -9.561033e-01   7.448190e-05
   9.547874e-07   2.934697e-06  -2.298019e-10  -3.181457e-01  -9.778736e-01   7.657256e-05
   7.799345e-07   2.989380e-06  -2.352421e-10  -2.598828e-01  -9.960946e-01   7.838529e-05
   6.022597e-07   3.033248e-06  -2.398313e-10  -2.006796e-01  -1.010712e+00   7.991444e-05
   4.224120e-07   3.066175e-06  -2.435553e-10  -1.407524e-01  -1.021684e+00   8.115533e-05
   2.410444e-07   3.088070e-06  -2.464030e-10  -8.031865e-02  -1.028979e+00   8.210422e-05
   5.881112e-08   3.098879e-06  -2.483662e-10  -1.959652e-02  -1.032581e+00   8.275838e-05
  -1.236330e-07   3.098585e-06  -2.494395e-10   4.119589e-02  -1.032483e+00   8.311602e-05
  -3.056350e-07   3.087207e-06  -2.496205e-10   1.018410e-01  -1.028692e+00   8.317632e-05
  -4.865451e-07   3.064797e-06  -2.489096e-10   1.621222e-01  -1.021224e+00   8.293943e-05
  -6.657182e-07   3.031446e-06  -2.473100e-10   2.218247e-01  -1.010112e+00   8.240644e-05
  -8.425159e-07   2.987278e-06  -2.448280e-10   2.807357e-01  -9.953943e-01   8.157941e-05
  -1.016308e-06   2.932452e-06  -2.414725e-10   3.386450e-01  -9.771257e-01   8.046131e-05
  -1.186473e-06   2.867162e-06  -2.372552e-10   3.953458e-01  -9.553700e-01   7.905607e-05
  -1.352401e-06   2.791633e-06  -2.321908e-10   4.506349e-01  -9.302030e-01   7.736854e-05
  -1.513495e-06   2.706126e-06  -2.262964e-10   5.043133e-01  -9.017111e-01   7.540448e-05
  -1.669172e-06   2.610934e-06  -2.195922e-10   5.561868e-01  -8.699922e-01   7.317055e-05
  -1.818866e-06   2.506383e-06  -2.121008e-10   6.060663e-01  -8.351546e-01   7.067433e-05
  -1.962026e-06   2.392828e-06  -2.038475e-10   6.537688e-01  -7.973170e-01   6.792424e-05
  -2.098121e-06   2.270659e-06  -1.948602e-10   6.991172e-01  -7.566087e-01   6.492958e-05
  -2.226641e-06   2.140292e-06  -1.851695e-10   7.419416e-01  -7.131689e-01   6.170052e-05
  -2.347098e-06   2.002174e-06  -1.748082e-10   7.820792e-01  -6.671467e-01   5.824804e-05
  -2.459027e-06   1.856783e-06  -1.638119e-10   8.193752e-01  -6.187007e-01   5.458394e-05
  -2.561989e-06   1.704621e-06  -1.522182e-10   8.536833e-01  -5.679987e-01   5.072080e-05
  -2.655572e-06   1.546219e-06  -1.400673e-10   8.848659e-01  -5.152174e-01   4.667198e-05
  -2.739391e-06   1.382133e-06  -1.274015e-10   9.127954e-01  -4.605420e-01   4.245159e-05
  -2.813093e-06   1.212943e-06  -1.142652e-10   9.373537e-01  -4.041660e-01   3.807444e-05
  -2.876356e-06   1.039253e-06  -1.007050e-10   9.584338e-01  -3.462905e-01   3.355601e-05
  -2.928893e-06   8.616871e-07  -8.676922e-11   9.759396e-01  -2.871237e-01   2.891247e-05
  -2.970449e-06   6.808920e-07  -7.250823e-11   9.897867e-01  -2.268808e-01   2.416055e-05
  -3.000809e-06   4.975312e-07  -5.797400e-11   9.999030e-01  -1.657829e-01   1.931758e-05
  -3.019795e-06   3.122850e-07  -4.322006e-11   1.006229e+00  -1.040568e-01   1.440141e-05
  -3.027267e-06   1.258490e-07  -2.830141e-11   1.008719e+00  -4.193429e-02   9.430343e-06
  -3.023129e-06  -6.106895e-08  -1.327427e-11   1.007340e+00   2.034885e-02   4.423133e-06
  -3.007326e-06  -2.477505e-07   1.804038e-12   1.002074e+00   8.255323e-02  -6.011255e-07
  -2.979847e-06  -4.334695e-07   1.687528e-11   9.929179e-01   1.444368e-01  -5.623029e-06
  -2.940725e-06  -6.174940e-07   3.188052e-11   9.798822e-01   2.057559e-01  -1.062294e-05
  -2.890041e-06  -7.990900e-07   4.676035e-11   9.629937e-01   2.662656e-01  -1.558107e-05
  -2.827921e-06  -9.775232e-07   6.145510e-11   9.422948e-01   3.257216e-01  -2.047752e-05
  -2.754540e-06  -1.152063e-06   7.590504e-11   9.178435e-01   3.838801e-01  -2.529240e-05
  -2.670120e-06  -1.321985e-06   9.005072e-11   8.897138e-01   4.404999e-01  -3.000590e-05
  -2.574932e-06  -1.486574e-06   1.038331e-10   8.579958e-01   4.953429e-01  -3.459836e-05
  -2.469293e-06  -1.645129e-06   1.171941e-10   8.227959e-01   5.481753e-01  -3.905038e-05
  -2.353571e-06  -1.796966e-06   1.300764e-10   7.842360e-01   5.987689e-01  -4.334291e-05
  -2.228180e-06  -1.941419e-06   1.424243e-10   7.424544e-01   6.469023e-01  -4.745736e-05
  -2.093581e-06  -2.077848e-06   1.541835e-10   6.976045e-01   6.923620e-01  -5.137566e-05
  -1.950281e-06  -2.205640e-06   1.653018e-10   6.498552e-01   7.349438e-01  -5.508040e-05
  -1.798830e-06  -2.324213e-06   1.757292e-10   5.993900e-01   7.744535e-01  -5.855491e-05
  -1.639820e-06  -2.433019e-06   1.854181e-10   5.464063e-01   8.107090e-01  -6.178337e-05
  -1.473886e-06  -2.531550e-06   1.943239e-10   4.911152e-01   8.435405e-01  -6.475089e-05
  -1.301698e-06  -2.619337e-06   2.024051e-10   4.337403e-01   8.727923e-01  -6.744363e-05
  -1.123962e-06  -2.695959e-06   2.096235e-10   3.745166e-01   8.983236e-01  -6.984886e-05
  -9.414148e-07  -2.761041e-06   2.159445e-10   3.136899e-01   9.200094e-01  -7.195510e-05
  -7.548230e-07  -2.814257e-06   2.213375e-10   2.515154e-01   9.377418e-01  -7.375213e-05
  -5.649767e-07  -2.855339e-06   2.257762e-10   1.882565e-01   9.514305e-01  -7.523113e-05
